[DEFAULT]

version = pdfgetx3-1.0-r2152-20130314

# input and output specifications
dataformat = Qnm
inputfile = ano_ramp_0092.int
backgroundfile = kapton_06mm_d13p2_311_2_100f_rt_01b.chi
outputtype = gr

# PDF calculation setup
mode = xray
wavelength = 0.13702
composition = AgNbO3
bgscale = 0.06
rpoly = 0.7
qmaxinst = 24
qmin = 1.13
qmax = 21
rmin = 0
rmax = 100
rstep = 0.01

# End of config --------------------------------------------------------------

#### start data
#S 1
#L r($\AA$)  G($\AA^{-2}$)
0 0
0.01 -0.0142664
0.02 -0.0279403
0.03 -0.0404862
0.04 -0.0512422
0.05 -0.0599466
0.06 -0.066086
0.07 -0.0693705
0.08 -0.0698437
0.09 -0.067154
0.1 -0.061599
0.11 -0.0534438
0.12 -0.0426836
0.13 -0.0300603
0.14 -0.0159633
0.15 -0.000940346
0.16 0.0143234
0.17 0.0292049
0.18 0.0429994
0.19 0.0552052
0.2 0.0650273
0.21 0.0721044
0.22 0.0761503
0.23 0.076406
0.24 0.0731628
0.25 0.0662466
0.26 0.0555468
0.27 0.0416543
0.28 0.0247053
0.29 0.00528116
0.3 -0.0158913
0.31 -0.0382347
0.32 -0.0608325
0.33 -0.082937
0.34 -0.103496
0.35 -0.121847
0.36 -0.137152
0.37 -0.148403
0.38 -0.15536
0.39 -0.157159
0.4 -0.153444
0.41 -0.144344
0.42 -0.129179
0.43 -0.108537
0.44 -0.0827899
0.45 -0.0518151
0.46 -0.0168628
0.47 0.0215308
0.48 0.06256
0.49 0.105049
0.5 0.148063
0.51 0.19042
0.52 0.231176
0.53 0.269003
0.54 0.303106
0.55 0.332766
0.56 0.356554
0.57 0.374554
0.58 0.386094
0.59 0.39055
0.6 0.388489
0.61 0.379497
0.62 0.364034
0.63 0.342913
0.64 0.316168
0.65 0.285076
0.66 0.250493
0.67 0.213112
0.68 0.174279
0.69 0.134895
0.7 0.0960733
0.71 0.0586825
0.72 0.0237386
0.73 -0.00797325
0.74 -0.0360546
0.75 -0.0595321
0.76 -0.0784647
0.77 -0.0927654
0.78 -0.101914
0.79 -0.106695
0.8 -0.107216
0.81 -0.103829
0.82 -0.0974393
0.83 -0.0884922
0.84 -0.0778653
0.85 -0.0663623
0.86 -0.0547455
0.87 -0.0438135
0.88 -0.0341889
0.89 -0.026731
0.9 -0.0217006
0.91 -0.019589
0.92 -0.0207985
0.93 -0.0251516
0.94 -0.03289
0.95 -0.0437314
0.96 -0.0572357
0.97 -0.0732693
0.98 -0.0910642
0.99 -0.110086
1 -0.12974
1.01 -0.149301
1.02 -0.168147
1.03 -0.185559
1.04 -0.201128
1.05 -0.214193
1.06 -0.224421
1.07 -0.231715
1.08 -0.235544
1.09 -0.236217
1.1 -0.233833
1.11 -0.228327
1.12 -0.220381
1.13 -0.210273
1.14 -0.198493
1.15 -0.185705
1.16 -0.172422
1.17 -0.159296
1.18 -0.146831
1.19 -0.135701
1.2 -0.126248
1.21 -0.118817
1.22 -0.113933
1.23 -0.111483
1.24 -0.111658
1.25 -0.114477
1.26 -0.119573
1.27 -0.126886
1.28 -0.135961
1.29 -0.14634
1.3 -0.157677
1.31 -0.169372
1.32 -0.180992
1.33 -0.191994
1.34 -0.202031
1.35 -0.210702
1.36 -0.217659
1.37 -0.22286
1.38 -0.226051
1.39 -0.227332
1.4 -0.226905
1.41 -0.224793
1.42 -0.221489
1.43 -0.217328
1.44 -0.212724
1.45 -0.208188
1.46 -0.204186
1.47 -0.20125
1.48 -0.199701
1.49 -0.200061
1.5 -0.20256
1.51 -0.207277
1.52 -0.214608
1.53 -0.224245
1.54 -0.236085
1.55 -0.250028
1.56 -0.265482
1.57 -0.282083
1.58 -0.299239
1.59 -0.316333
1.6 -0.332677
1.61 -0.347597
1.62 -0.360579
1.63 -0.370676
1.64 -0.377655
1.65 -0.381057
1.66 -0.380188
1.67 -0.375286
1.68 -0.366024
1.69 -0.352403
1.7 -0.334938
1.71 -0.313602
1.72 -0.289082
1.73 -0.262016
1.74 -0.232799
1.75 -0.202399
1.76 -0.171468
1.77 -0.140811
1.78 -0.111108
1.79 -0.0830786
1.8 -0.0574056
1.81 -0.0343843
1.82 -0.0146944
1.83 0.00156764
1.84 0.0144276
1.85 0.0234267
1.86 0.0291588
1.87 0.0317832
1.88 0.0314695
1.89 0.0289595
1.9 0.0246132
1.91 0.0190252
1.92 0.0128079
1.93 0.00647596
1.94 0.000568549
1.95 -0.00454631
1.96 -0.00836234
1.97 -0.0107951
1.98 -0.0116982
1.99 -0.0109592
2 -0.00886902
2.01 -0.0055761
2.02 -0.00146026
2.03 0.00301313
2.04 0.00734373
2.05 0.0109593
2.06 0.0133901
2.07 0.0138411
2.08 0.0120474
2.09 0.00754882
2.1 -0.000223694
2.11 -0.0111488
2.12 -0.0255224
2.13 -0.0432739
2.14 -0.0639683
2.15 -0.0875283
2.16 -0.113235
2.17 -0.140459
2.18 -0.168577
2.19 -0.196661
2.2 -0.22394
2.21 -0.249391
2.22 -0.272391
2.23 -0.292002
2.24 -0.307488
2.25 -0.318615
2.26 -0.324478
2.27 -0.325182
2.28 -0.32085
2.29 -0.310934
2.3 -0.296462
2.31 -0.277728
2.32 -0.255205
2.33 -0.230034
2.34 -0.202926
2.35 -0.174971
2.36 -0.147164
2.37 -0.120616
2.38 -0.0962637
2.39 -0.0748287
2.4 -0.0575956
2.41 -0.044663
2.42 -0.0365993
2.43 -0.0339747
2.44 -0.0363033
2.45 -0.0437825
2.46 -0.0559545
2.47 -0.071998
2.48 -0.0915554
2.49 -0.113456
2.5 -0.136784
2.51 -0.160548
2.52 -0.183652
2.53 -0.205138
2.54 -0.223861
2.55 -0.239295
2.56 -0.250516
2.57 -0.257043
2.58 -0.258908
2.59 -0.25551
2.6 -0.247417
2.61 -0.235069
2.62 -0.218587
2.63 -0.199236
2.64 -0.177744
2.65 -0.155148
2.66 -0.132599
2.67 -0.111227
2.68 -0.0922073
2.69 -0.0763324
2.7 -0.064954
2.71 -0.058498
2.72 -0.0573686
2.73 -0.0626244
2.74 -0.0736075
2.75 -0.0904465
2.76 -0.113023
2.77 -0.140251
2.78 -0.171706
2.79 -0.206272
2.8 -0.242778
2.81 -0.280186
2.82 -0.317184
2.83 -0.352748
2.84 -0.385468
2.85 -0.41474
2.86 -0.439687
2.87 -0.459486
2.88 -0.474301
2.89 -0.483672
2.9 -0.487956
2.91 -0.487886
2.92 -0.483741
2.93 -0.476855
2.94 -0.468256
2.95 -0.459161
2.96 -0.450923
2.97 -0.444797
2.98 -0.442248
2.99 -0.44399
3 -0.451282
3.01 -0.464649
3.02 -0.484019
3.03 -0.51005
3.04 -0.541671
3.05 -0.578067
3.06 -0.618338
3.07 -0.660393
3.08 -0.702433
3.09 -0.741885
3.1 -0.776554
3.11 -0.803264
3.12 -0.819224
3.13 -0.822508
3.14 -0.808622
3.15 -0.776602
3.16 -0.724624
3.17 -0.648508
3.18 -0.549753
3.19 -0.426518
3.2 -0.277783
3.21 -0.106198
3.22 0.0890384
3.23 0.305201
3.24 0.538965
3.25 0.789131
3.26 1.05043
3.27 1.31923
3.28 1.59132
3.29 1.86174
3.3 2.12589
3.31 2.37822
3.32 2.6153
3.33 2.83117
3.34 3.02216
3.35 3.18619
3.36 3.31639
3.37 3.41343
3.38 3.47558
3.39 3.49793
3.4 3.48447
3.41 3.43351
3.42 3.34503
3.43 3.22367
3.44 3.06877
3.45 2.88465
3.46 2.67572
3.47 2.44296
3.48 2.19287
3.49 1.92909
3.5 1.65516
3.51 1.37636
3.52 1.09641
3.53 0.819707
3.54 0.549504
3.55 0.289993
3.56 0.0440613
3.57 -0.186495
3.58 -0.397064
3.59 -0.587746
3.6 -0.75699
3.61 -0.90147
3.62 -1.0231
3.63 -1.12013
3.64 -1.19184
3.65 -1.24035
3.66 -1.26382
3.67 -1.264
3.68 -1.24261
3.69 -1.19784
3.7 -1.13323
3.71 -1.04956
3.72 -0.94652
3.73 -0.827471
3.74 -0.692843
3.75 -0.544046
3.76 -0.383716
3.77 -0.2126
3.78 -0.0332477
3.79 0.152156
3.8 0.34196
3.81 0.533326
3.82 0.724101
3.83 0.911385
3.84 1.09303
3.85 1.26615
3.86 1.42774
3.87 1.5763
3.88 1.70796
3.89 1.82117
3.9 1.91489
3.91 1.98446
3.92 2.03115
3.93 2.05355
3.94 2.04891
3.95 2.01988
3.96 1.96519
3.97 1.88542
3.98 1.78362
3.99 1.65942
4 1.51637
4.01 1.35755
4.02 1.18413
4.03 1.00106
4.04 0.811168
4.05 0.617832
4.06 0.424778
4.07 0.235332
4.08 0.053059
4.09 -0.119819
4.1 -0.279573
4.11 -0.424604
4.12 -0.553932
4.13 -0.663932
4.14 -0.756151
4.15 -0.829911
4.16 -0.884133
4.17 -0.921546
4.18 -0.94221
4.19 -0.947797
4.2 -0.941152
4.21 -0.923304
4.22 -0.89739
4.23 -0.865831
4.24 -0.830569
4.25 -0.794358
4.26 -0.759072
4.27 -0.726865
4.28 -0.698912
4.29 -0.676675
4.3 -0.661049
4.31 -0.651953
4.32 -0.650101
4.33 -0.654651
4.34 -0.664755
4.35 -0.680055
4.36 -0.698643
4.37 -0.719338
4.38 -0.740568
4.39 -0.760779
4.4 -0.778401
4.41 -0.791895
4.42 -0.800405
4.43 -0.802315
4.44 -0.797292
4.45 -0.785187
4.46 -0.764875
4.47 -0.737609
4.48 -0.703623
4.49 -0.663406
4.5 -0.618602
4.51 -0.570155
4.52 -0.519659
4.53 -0.468661
4.54 -0.418784
4.55 -0.371555
4.56 -0.328151
4.57 -0.290552
4.58 -0.259093
4.59 -0.234738
4.6 -0.218505
4.61 -0.209818
4.62 -0.209143
4.63 -0.215981
4.64 -0.22923
4.65 -0.248607
4.66 -0.272484
4.67 -0.299613
4.68 -0.328852
4.69 -0.358541
4.7 -0.387438
4.71 -0.414071
4.72 -0.437581
4.73 -0.456808
4.74 -0.47106
4.75 -0.480278
4.76 -0.483758
4.77 -0.482122
4.78 -0.475895
4.79 -0.465314
4.8 -0.451868
4.81 -0.436498
4.82 -0.420539
4.83 -0.405348
4.84 -0.392371
4.85 -0.38303
4.86 -0.378225
4.87 -0.379642
4.88 -0.387683
4.89 -0.402751
4.9 -0.426097
4.91 -0.456741
4.92 -0.494734
4.93 -0.539792
4.94 -0.590445
4.95 -0.646027
4.96 -0.705027
4.97 -0.765916
4.98 -0.827231
4.99 -0.887305
5 -0.944803
5.01 -0.997788
5.02 -1.04555
5.03 -1.0869
5.04 -1.12066
5.05 -1.14707
5.06 -1.16537
5.07 -1.17591
5.08 -1.17956
5.09 -1.17634
5.1 -1.16789
5.11 -1.15535
5.12 -1.13981
5.13 -1.12304
5.14 -1.10634
5.15 -1.09122
5.16 -1.07873
5.17 -1.07012
5.18 -1.06611
5.19 -1.06684
5.2 -1.07296
5.21 -1.08367
5.22 -1.09831
5.23 -1.11608
5.24 -1.13519
5.25 -1.15403
5.26 -1.17034
5.27 -1.18222
5.28 -1.18692
5.29 -1.18206
5.3 -1.16608
5.31 -1.13524
5.32 -1.0889
5.33 -1.02575
5.34 -0.94257
5.35 -0.840949
5.36 -0.719759
5.37 -0.578671
5.38 -0.420241
5.39 -0.244472
5.4 -0.0540775
5.41 0.147893
5.42 0.359597
5.43 0.576674
5.44 0.795891
5.45 1.01316
5.46 1.22489
5.47 1.42718
5.48 1.6156
5.49 1.78807
5.5 1.93999
5.51 2.06918
5.52 2.17483
5.53 2.25218
5.54 2.30291
5.55 2.32657
5.56 2.3206
5.57 2.28901
5.58 2.23167
5.59 2.14978
5.6 2.04745
5.61 1.92551
5.62 1.78774
5.63 1.63766
5.64 1.47721
5.65 1.31064
5.66 1.14063
5.67 0.970115
5.68 0.801708
5.69 0.637736
5.7 0.480501
5.71 0.330953
5.72 0.191053
5.73 0.061278
5.74 -0.0584682
5.75 -0.166791
5.76 -0.265105
5.77 -0.353771
5.78 -0.432671
5.79 -0.503705
5.8 -0.567333
5.81 -0.624485
5.82 -0.676591
5.83 -0.724136
5.84 -0.768202
5.85 -0.809574
5.86 -0.848521
5.87 -0.885695
5.88 -0.92128
5.89 -0.955226
5.9 -0.987655
5.91 -1.01833
5.92 -1.04696
5.93 -1.07346
5.94 -1.09735
5.95 -1.11851
5.96 -1.13692
5.97 -1.15213
5.98 -1.16456
5.99 -1.17433
6 -1.18157
6.01 -1.18699
6.02 -1.19101
6.03 -1.19434
6.04 -1.1977
6.05 -1.20185
6.06 -1.2075
6.07 -1.21516
6.08 -1.22566
6.09 -1.23901
6.1 -1.25539
6.11 -1.27488
6.12 -1.29674
6.13 -1.32043
6.14 -1.34481
6.15 -1.36858
6.16 -1.38995
6.17 -1.40704
6.18 -1.41815
6.19 -1.41989
6.2 -1.41092
6.21 -1.38884
6.22 -1.34998
6.23 -1.29395
6.24 -1.21774
6.25 -1.11934
6.26 -0.999222
6.27 -0.85432
6.28 -0.685734
6.29 -0.494634
6.3 -0.278857
6.31 -0.0427671
6.32 0.212363
6.33 0.485139
6.34 0.770832
6.35 1.06692
6.36 1.36926
6.37 1.6736
6.38 1.97561
6.39 2.2708
6.4 2.55562
6.41 2.82382
6.42 3.07343
6.43 3.30063
6.44 3.50023
6.45 3.67244
6.46 3.81337
6.47 3.92134
6.48 3.99792
6.49 4.03969
6.5 4.04938
6.51 4.02919
6.52 3.97686
6.53 3.89867
6.54 3.79618
6.55 3.67111
6.56 3.52886
6.57 3.37161
6.58 3.2032
6.59 3.02757
6.6 2.84751
6.61 2.66661
6.62 2.48737
6.63 2.3129
6.64 2.14467
6.65 1.98439
6.66 1.83391
6.67 1.69296
6.68 1.5625
6.69 1.44234
6.7 1.33133
6.71 1.22956
6.72 1.13524
6.73 1.047
6.74 0.96406
6.75 0.884285
6.76 0.806476
6.77 0.729231
6.78 0.651337
6.79 0.571739
6.8 0.489604
6.81 0.404629
6.82 0.316254
6.83 0.224796
6.84 0.130646
6.85 0.034144
6.86 -0.0635653
6.87 -0.161566
6.88 -0.258528
6.89 -0.353303
6.9 -0.444377
6.91 -0.530327
6.92 -0.610304
6.93 -0.682372
6.94 -0.746067
6.95 -0.800873
6.96 -0.844968
6.97 -0.879328
6.98 -0.903499
6.99 -0.917154
7 -0.921729
7.01 -0.917247
7.02 -0.904872
7.03 -0.88614
7.04 -0.86174
7.05 -0.833599
7.06 -0.803107
7.07 -0.77169
7.08 -0.740924
7.09 -0.712125
7.1 -0.686812
7.11 -0.665724
7.12 -0.650118
7.13 -0.640662
7.14 -0.637412
7.15 -0.641339
7.16 -0.65184
7.17 -0.668585
7.18 -0.691803
7.19 -0.720068
7.2 -0.752837
7.21 -0.789257
7.22 -0.828001
7.23 -0.868142
7.24 -0.908437
7.25 -0.947884
7.26 -0.985254
7.27 -1.01976
7.28 -1.05071
7.29 -1.07696
7.3 -1.09859
7.31 -1.11512
7.32 -1.12621
7.33 -1.13244
7.34 -1.13369
7.35 -1.13058
7.36 -1.12389
7.37 -1.11401
7.38 -1.10206
7.39 -1.08886
7.4 -1.07531
7.41 -1.06234
7.42 -1.05081
7.43 -1.04164
7.44 -1.03528
7.45 -1.03252
7.46 -1.03369
7.47 -1.03877
7.48 -1.04826
7.49 -1.06161
7.5 -1.07847
7.51 -1.09862
7.52 -1.121
7.53 -1.14491
7.54 -1.16931
7.55 -1.19316
7.56 -1.21522
7.57 -1.2343
7.58 -1.2495
7.59 -1.25909
7.6 -1.26252
7.61 -1.25898
7.62 -1.24681
7.63 -1.2264
7.64 -1.19693
7.65 -1.15785
7.66 -1.11003
7.67 -1.05294
7.68 -0.987473
7.69 -0.914719
7.7 -0.834843
7.71 -0.749743
7.72 -0.660618
7.73 -0.568752
7.74 -0.476031
7.75 -0.384001
7.76 -0.294585
7.77 -0.209168
7.78 -0.129818
7.79 -0.0579929
7.8 0.005395
7.81 0.057854
7.82 0.0993671
7.83 0.129124
7.84 0.145256
7.85 0.148918
7.86 0.139329
7.87 0.116323
7.88 0.0813939
7.89 0.0341518
7.9 -0.0239266
7.91 -0.0913101
7.92 -0.167742
7.93 -0.250812
7.94 -0.339182
7.95 -0.43153
7.96 -0.525824
7.97 -0.620628
7.98 -0.714226
7.99 -0.805337
8 -0.892321
8.01 -0.974074
8.02 -1.04992
8.03 -1.11813
8.04 -1.17887
8.05 -1.23163
8.06 -1.27541
8.07 -1.3111
8.08 -1.33834
8.09 -1.35723
8.1 -1.36878
8.11 -1.3728
8.12 -1.37024
8.13 -1.36192
8.14 -1.34778
8.15 -1.32903
8.16 -1.30609
8.17 -1.27913
8.18 -1.24892
8.19 -1.21552
8.2 -1.17903
8.21 -1.13971
8.22 -1.09719
8.23 -1.0514
8.24 -1.00223
8.25 -0.948791
8.26 -0.891117
8.27 -0.828709
8.28 -0.760633
8.29 -0.687044
8.3 -0.607209
8.31 -0.520693
8.32 -0.427788
8.33 -0.327757
8.34 -0.221018
8.35 -0.108017
8.36 0.0117117
8.37 0.136895
8.38 0.267078
8.39 0.401802
8.4 0.539747
8.41 0.680181
8.42 0.821997
8.43 0.964109
8.44 1.10542
8.45 1.24488
8.46 1.38168
8.47 1.51446
8.48 1.64288
8.49 1.76626
8.5 1.88364
8.51 1.9953
8.52 2.10068
8.53 2.19971
8.54 2.29296
8.55 2.38008
8.56 2.46183
8.57 2.53879
8.58 2.61084
8.59 2.67907
8.6 2.7438
8.61 2.80521
8.62 2.86395
8.63 2.92001
8.64 2.97341
8.65 3.02422
8.66 3.0718
8.67 3.1158
8.68 3.15573
8.69 3.18998
8.7 3.21818
8.71 3.23902
8.72 3.25053
8.73 3.25229
8.74 3.24225
8.75 3.21891
8.76 3.182
8.77 3.12883
8.78 3.05942
8.79 2.97369
8.8 2.86876
8.81 2.74683
8.82 2.60743
8.83 2.44993
8.84 2.27687
8.85 2.08827
8.86 1.88582
8.87 1.67209
8.88 1.44805
8.89 1.21682
8.9 0.980808
8.91 0.742311
8.92 0.504294
8.93 0.269177
8.94 0.040014
8.95 -0.18145
8.96 -0.392444
8.97 -0.59089
8.98 -0.77607
8.99 -0.945078
9 -1.09805
9.01 -1.23489
9.02 -1.35319
9.03 -1.45539
9.04 -1.54131
9.05 -1.61093
9.06 -1.66686
9.07 -1.70942
9.08 -1.74045
9.09 -1.76221
9.1 -1.77556
9.11 -1.78298
9.12 -1.78612
9.13 -1.78625
9.14 -1.78518
9.15 -1.78396
9.16 -1.78369
9.17 -1.78492
9.18 -1.78818
9.19 -1.79352
9.2 -1.80063
9.21 -1.80917
9.22 -1.81826
9.23 -1.827
9.24 -1.83402
9.25 -1.83823
9.26 -1.8382
9.27 -1.83213
9.28 -1.81925
9.29 -1.79768
9.3 -1.76629
9.31 -1.72474
9.32 -1.67101
9.33 -1.60552
9.34 -1.52824
9.35 -1.43775
9.36 -1.33595
9.37 -1.2229
9.38 -1.09906
9.39 -0.966484
9.4 -0.825861
9.41 -0.679052
9.42 -0.527983
9.43 -0.37415
9.44 -0.219755
9.45 -0.0664924
9.46 0.0833616
9.47 0.22843
9.48 0.366929
9.49 0.496861
9.5 0.617714
9.51 0.727579
9.52 0.825712
9.53 0.912144
9.54 0.984949
9.55 1.04504
9.56 1.09248
9.57 1.12595
9.58 1.14734
9.59 1.15644
9.6 1.1533
9.61 1.13952
9.62 1.11486
9.63 1.0803
9.64 1.03698
9.65 0.984563
9.66 0.924504
9.67 0.857377
9.68 0.783022
9.69 0.702772
9.7 0.616789
9.71 0.525379
9.72 0.429456
9.73 0.329138
9.74 0.22514
9.75 0.118208
9.76 0.00874422
9.77 -0.102189
9.78 -0.213772
9.79 -0.324886
9.8 -0.434419
9.81 -0.541054
9.82 -0.643095
9.83 -0.73947
9.84 -0.828009
9.85 -0.907145
9.86 -0.975818
9.87 -1.03083
9.88 -1.07178
9.89 -1.09729
9.9 -1.10415
9.91 -1.09325
9.92 -1.06271
9.93 -1.01115
9.94 -0.939958
9.95 -0.847347
9.96 -0.734476
9.97 -0.603036
9.98 -0.45195
9.99 -0.284746
10 -0.103076
10.01 0.091951
10.02 0.296344
10.03 0.507938
10.04 0.723574
10.05 0.939942
10.06 1.15374
10.07 1.36155
10.08 1.56077
10.09 1.74684
10.1 1.91812
10.11 2.07213
10.12 2.20454
10.13 2.31578
10.14 2.40316
10.15 2.46483
10.16 2.50224
10.17 2.51289
10.18 2.49824
10.19 2.46012
10.2 2.39678
10.21 2.31245
10.22 2.20863
10.23 2.08597
10.24 1.94885
10.25 1.79889
10.26 1.63878
10.27 1.47182
10.28 1.30015
10.29 1.12673
10.3 0.953794
10.31 0.783917
10.32 0.618778
10.33 0.45996
10.34 0.309594
10.35 0.167808
10.36 0.0358242
10.37 -0.08574
10.38 -0.197594
10.39 -0.298993
10.4 -0.39093
10.41 -0.474415
10.42 -0.549275
10.43 -0.61747
10.44 -0.679844
10.45 -0.737151
10.46 -0.790987
10.47 -0.842147
10.48 -0.89165
10.49 -0.940399
10.5 -0.989048
10.51 -1.03816
10.52 -1.08804
10.53 -1.13897
10.54 -1.19084
10.55 -1.24348
10.56 -1.29662
10.57 -1.34973
10.58 -1.40228
10.59 -1.45356
10.6 -1.50302
10.61 -1.54976
10.62 -1.5932
10.63 -1.63291
10.64 -1.66775
10.65 -1.69783
10.66 -1.7227
10.67 -1.74171
10.68 -1.75536
10.69 -1.76335
10.7 -1.7658
10.71 -1.76338
10.72 -1.756
10.73 -1.74445
10.74 -1.72936
10.75 -1.71091
10.76 -1.69009
10.77 -1.66737
10.78 -1.64322
10.79 -1.61825
10.8 -1.59283
10.81 -1.56731
10.82 -1.54191
10.83 -1.51679
10.84 -1.49197
10.85 -1.46738
10.86 -1.44288
10.87 -1.41824
10.88 -1.39321
10.89 -1.36742
10.9 -1.34065
10.91 -1.31254
10.92 -1.28282
10.93 -1.25142
10.94 -1.21805
10.95 -1.18283
10.96 -1.14593
10.97 -1.10738
10.98 -1.06773
10.99 -1.0274
11 -0.986994
11.01 -0.94719
11.02 -0.90879
11.03 -0.872691
11.04 -0.839522
11.05 -0.81051
11.06 -0.786227
11.07 -0.76718
11.08 -0.754837
11.09 -0.748879
11.1 -0.749867
11.11 -0.75844
11.12 -0.773844
11.13 -0.796345
11.14 -0.825403
11.15 -0.859974
11.16 -0.899718
11.17 -0.943134
11.18 -0.989015
11.19 -1.03609
11.2 -1.08269
11.21 -1.12733
11.22 -1.16806
11.23 -1.20369
11.24 -1.23225
11.25 -1.25215
11.26 -1.26265
11.27 -1.26137
11.28 -1.24805
11.29 -1.22221
11.3 -1.18145
11.31 -1.12718
11.32 -1.05865
11.33 -0.975081
11.34 -0.878124
11.35 -0.7672
11.36 -0.643188
11.37 -0.507637
11.38 -0.360264
11.39 -0.203084
11.4 -0.0373167
11.41 0.136771
11.42 0.316971
11.43 0.502434
11.44 0.692118
11.45 0.884555
11.46 1.07888
11.47 1.27395
11.48 1.46886
11.49 1.66261
11.5 1.85443
11.51 2.04365
11.52 2.22908
11.53 2.41042
11.54 2.5868
11.55 2.75712
11.56 2.92117
11.57 3.07759
11.58 3.22555
11.59 3.36468
11.6 3.49281
11.61 3.60974
11.62 3.71463
11.63 3.8047
11.64 3.88051
11.65 3.94031
11.66 3.9821
11.67 4.00648
11.68 4.01105
11.69 3.99538
11.7 3.96006
11.71 3.90231
11.72 3.82388
11.73 3.72509
11.74 3.60401
11.75 3.46387
11.76 3.30467
11.77 3.12699
11.78 2.93389
11.79 2.72587
11.8 2.50549
11.81 2.27544
11.82 2.03713
11.83 1.79386
11.84 1.54789
11.85 1.3018
11.86 1.05801
11.87 0.818846
11.88 0.586915
11.89 0.36346
11.9 0.150982
11.91 -0.0492659
11.92 -0.236894
11.93 -0.40941
11.94 -0.567657
11.95 -0.711492
11.96 -0.839421
11.97 -0.953577
11.98 -1.05378
11.99 -1.1404
12 -1.21543
12.01 -1.27892
12.02 -1.3324
12.03 -1.3774
12.04 -1.41402
12.05 -1.44409
12.06 -1.46838
12.07 -1.4871
12.08 -1.50139
12.09 -1.51133
12.1 -1.51695
12.11 -1.51856
12.12 -1.51554
12.13 -1.50764
12.14 -1.49462
12.15 -1.47515
12.16 -1.44917
12.17 -1.41603
12.18 -1.37426
12.19 -1.32427
12.2 -1.26517
12.21 -1.19641
12.22 -1.11871
12.23 -1.03143
12.24 -0.935403
12.25 -0.831699
12.26 -0.720422
12.27 -0.603625
12.28 -0.482614
12.29 -0.358925
12.3 -0.234713
12.31 -0.111893
12.32 0.00715287
12.33 0.120708
12.34 0.226058
12.35 0.321368
12.36 0.405425
12.37 0.474873
12.38 0.529777
12.39 0.568979
12.4 0.590107
12.41 0.594695
12.42 0.58173
12.43 0.551215
12.44 0.505209
12.45 0.443392
12.46 0.368037
12.47 0.281346
12.48 0.184127
12.49 0.0798328
12.5 -0.0294461
12.51 -0.14129
12.52 -0.252921
12.53 -0.361879
12.54 -0.465405
12.55 -0.561764
12.56 -0.64805
12.57 -0.722758
12.58 -0.784985
12.59 -0.831621
12.6 -0.863434
12.61 -0.879637
12.62 -0.878598
12.63 -0.862218
12.64 -0.829939
