[DEFAULT]

version = pdfgetx3-1.0-r2152-20130314

# input and output specifications
dataformat = Qnm
inputfile = ano_ramp_0093.int
backgroundfile = kapton_06mm_d13p2_311_2_100f_rt_01b.chi
outputtype = gr

# PDF calculation setup
mode = xray
wavelength = 0.13702
composition = AgNbO3
bgscale = 0.06
rpoly = 0.7
qmaxinst = 24
qmin = 1.13
qmax = 21
rmin = 0
rmax = 100
rstep = 0.01

# End of config --------------------------------------------------------------

#### start data
#S 1
#L r($\AA$)  G($\AA^{-2}$)
0 0
0.01 -0.0148851
0.02 -0.0291511
0.03 -0.0422386
0.04 -0.0534563
0.05 -0.0625309
0.06 -0.0689265
0.07 -0.0723411
0.08 -0.0728206
0.09 -0.0699991
0.1 -0.0641883
0.11 -0.055666
0.12 -0.0444289
0.13 -0.0312522
0.14 -0.0165434
0.15 -0.000875624
0.16 0.0150365
0.17 0.0305421
0.18 0.0449064
0.19 0.0576072
0.2 0.0678162
0.21 0.0751589
0.22 0.0793392
0.23 0.079569
0.24 0.0761552
0.25 0.0689196
0.26 0.0577517
0.27 0.0432697
0.28 0.02562
0.29 0.00541123
0.3 -0.0165984
0.31 -0.0398035
0.32 -0.0632507
0.33 -0.0861625
0.34 -0.107443
0.35 -0.126407
0.36 -0.142186
0.37 -0.153738
0.38 -0.160817
0.39 -0.162535
0.4 -0.158529
0.41 -0.148942
0.42 -0.133078
0.43 -0.111555
0.44 -0.0847694
0.45 -0.0526078
0.46 -0.0163704
0.47 0.0233774
0.48 0.0657896
0.49 0.109648
0.5 0.153976
0.51 0.197549
0.52 0.239393
0.53 0.278127
0.54 0.312941
0.55 0.343098
0.56 0.367121
0.57 0.385118
0.58 0.396402
0.59 0.400344
0.6 0.397546
0.61 0.387596
0.62 0.370989
0.63 0.348578
0.64 0.320421
0.65 0.287848
0.66 0.251753
0.67 0.212878
0.68 0.172608
0.69 0.131886
0.7 0.0918712
0.71 0.053451
0.72 0.0176823
0.73 -0.0146315
0.74 -0.0430926
0.75 -0.0666943
0.76 -0.0855191
0.77 -0.0994911
0.78 -0.108083
0.79 -0.112128
0.8 -0.111752
0.81 -0.107338
0.82 -0.0998368
0.83 -0.0897268
0.84 -0.0779299
0.85 -0.0652866
0.86 -0.0526045
0.87 -0.040712
0.88 -0.0302588
0.89 -0.022149
0.9 -0.0166431
0.91 -0.0142544
0.92 -0.015401
0.93 -0.0198872
0.94 -0.027965
0.95 -0.0393321
0.96 -0.0535214
0.97 -0.0703921
0.98 -0.0891327
0.99 -0.10918
1 -0.129909
1.01 -0.150556
1.02 -0.170465
1.03 -0.188882
1.04 -0.205372
1.05 -0.21924
1.06 -0.230132
1.07 -0.237943
1.08 -0.242109
1.09 -0.242952
1.1 -0.240569
1.11 -0.234884
1.12 -0.226609
1.13 -0.21603
1.14 -0.203655
1.15 -0.190179
1.16 -0.176133
1.17 -0.162203
1.18 -0.148919
1.19 -0.136983
1.2 -0.126764
1.21 -0.118627
1.22 -0.113126
1.23 -0.110156
1.24 -0.109924
1.25 -0.11246
1.26 -0.117389
1.27 -0.124662
1.28 -0.13381
1.29 -0.144361
1.3 -0.155965
1.31 -0.167995
1.32 -0.18
1.33 -0.191419
1.34 -0.201881
1.35 -0.210964
1.36 -0.2183
1.37 -0.223834
1.38 -0.227289
1.39 -0.22876
1.4 -0.228443
1.41 -0.226347
1.42 -0.222979
1.43 -0.218674
1.44 -0.213852
1.45 -0.209042
1.46 -0.204723
1.47 -0.201445
1.48 -0.199549
1.49 -0.199577
1.5 -0.201779
1.51 -0.20625
1.52 -0.213412
1.53 -0.222961
1.54 -0.234806
1.55 -0.248864
1.56 -0.264532
1.57 -0.281452
1.58 -0.299025
1.59 -0.316617
1.6 -0.333532
1.61 -0.349072
1.62 -0.362701
1.63 -0.373449
1.64 -0.381056
1.65 -0.38504
1.66 -0.384673
1.67 -0.38018
1.68 -0.371206
1.69 -0.357731
1.7 -0.340268
1.71 -0.318767
1.72 -0.293921
1.73 -0.266376
1.74 -0.236515
1.75 -0.20534
1.76 -0.173517
1.77 -0.14187
1.78 -0.111115
1.79 -0.0819988
1.8 -0.0552403
1.81 -0.0311673
1.82 -0.0104989
1.83 0.00663687
1.84 0.0202428
1.85 0.0298115
1.86 0.0359344
1.87 0.0387508
1.88 0.0384024
1.89 0.0356497
1.9 0.0308414
1.91 0.024581
1.92 0.0175108
1.93 0.0101509
1.94 0.0030807
1.95 -0.00329742
1.96 -0.00844899
1.97 -0.012241
1.98 -0.0144907
1.99 -0.015039
2 -0.0141448
2.01 -0.0119147
2.02 -0.00869236
2.03 -0.00492972
2.04 -0.00108539
2.05 0.0022701
2.06 0.00466496
2.07 0.00533554
2.08 0.00397771
2.09 0.000124337
2.1 -0.00680322
2.11 -0.0167303
2.12 -0.0299745
2.13 -0.0465053
2.14 -0.0659305
2.15 -0.0882109
2.16 -0.112672
2.17 -0.138716
2.18 -0.165773
2.19 -0.192933
2.2 -0.219452
2.21 -0.244345
2.22 -0.266983
2.23 -0.286447
2.24 -0.302003
2.25 -0.313395
2.26 -0.319723
2.27 -0.321059
2.28 -0.317495
2.29 -0.308468
2.3 -0.294956
2.31 -0.277223
2.32 -0.255705
2.33 -0.231506
2.34 -0.205301
2.35 -0.178147
2.36 -0.151022
2.37 -0.125
2.38 -0.101012
2.39 -0.079777
2.4 -0.0625551
2.41 -0.0494728
2.42 -0.0411023
2.43 -0.0380234
2.44 -0.0397855
2.45 -0.0466042
2.46 -0.0580546
2.47 -0.0733488
2.48 -0.0921609
2.49 -0.113354
2.5 -0.136037
2.51 -0.159259
2.52 -0.181934
2.53 -0.203126
2.54 -0.221712
2.55 -0.237156
2.56 -0.248548
2.57 -0.255396
2.58 -0.257713
2.59 -0.254892
2.6 -0.247469
2.61 -0.235858
2.62 -0.220153
2.63 -0.201587
2.64 -0.180856
2.65 -0.158962
2.66 -0.137034
2.67 -0.116171
2.68 -0.0975271
2.69 -0.0818873
2.7 -0.0705762
2.71 -0.0640283
2.72 -0.0626524
2.73 -0.0674969
2.74 -0.0779375
2.75 -0.0941145
2.76 -0.11593
2.77 -0.142332
2.78 -0.172922
2.79 -0.206617
2.8 -0.242276
2.81 -0.278894
2.82 -0.315185
2.83 -0.350144
2.84 -0.382398
2.85 -0.411339
2.86 -0.436108
2.87 -0.455889
2.88 -0.470832
2.89 -0.480479
2.9 -0.485168
2.91 -0.485608
2.92 -0.482063
2.93 -0.475834
2.94 -0.46792
2.95 -0.459511
2.96 -0.451928
2.97 -0.4464
2.98 -0.44436
2.99 -0.446509
3 -0.454082
3.01 -0.467591
3.02 -0.486966
3.03 -0.512848
3.04 -0.544185
3.05 -0.580172
3.06 -0.619912
3.07 -0.661348
3.08 -0.702698
3.09 -0.741415
3.1 -0.775336
3.11 -0.801309
3.12 -0.816574
3.13 -0.819224
3.14 -0.804798
3.15 -0.772342
3.16 -0.720044
3.17 -0.643746
3.18 -0.544935
3.19 -0.421774
3.2 -0.273239
3.21 -0.101956
3.22 0.0928829
3.23 0.30858
3.24 0.541835
3.25 0.791471
3.26 1.05225
3.27 1.32057
3.28 1.59223
3.29 1.86232
3.3 2.12622
3.31 2.37843
3.32 2.61551
3.33 2.83152
3.34 3.02276
3.35 3.18718
3.36 3.31787
3.37 3.4155
3.38 3.4783
3.39 3.50135
3.4 3.48862
3.41 3.43837
3.42 3.35057
3.43 3.22983
3.44 3.07546
3.45 2.89176
3.46 2.68314
3.47 2.45054
3.48 2.20047
3.49 1.93658
3.5 1.66238
3.51 1.3832
3.52 1.10274
3.53 0.825439
3.54 0.554571
3.55 0.294348
3.56 0.0476878
3.57 -0.183587
3.58 -0.394833
3.59 -0.586128
3.6 -0.755901
3.61 -0.900796
3.62 -1.02273
3.63 -1.11992
3.64 -1.19166
3.65 -1.24007
3.66 -1.26331
3.67 -1.26314
3.68 -1.24132
3.69 -1.19602
3.7 -1.13085
3.71 -1.04659
3.72 -0.942953
3.73 -0.823342
3.74 -0.688206
3.75 -0.538983
3.76 -0.378322
3.77 -0.206995
3.78 -0.0275597
3.79 0.1578
3.8 0.347415
3.81 0.538468
3.82 0.728812
3.83 0.915553
3.84 1.09657
3.85 1.26901
3.86 1.42987
3.87 1.57769
3.88 1.70864
3.89 1.82117
3.9 1.91427
3.91 1.98333
3.92 2.0296
3.93 2.05171
3.94 2.04691
3.95 2.01785
3.96 1.96327
3.97 1.88373
3.98 1.78227
3.99 1.65851
4 1.51599
4.01 1.35774
4.02 1.18493
4.03 1.00247
4.04 0.813169
4.05 0.620372
4.06 0.427793
4.07 0.23873
4.08 0.0567332
4.09 -0.11598
4.1 -0.275698
4.11 -0.420817
4.12 -0.550351
4.13 -0.660682
4.14 -0.753331
4.15 -0.82761
4.16 -0.882424
4.17 -0.920478
4.18 -0.941811
4.19 -0.948074
4.2 -0.94209
4.21 -0.924868
4.22 -0.899526
4.23 -0.868474
4.24 -0.833633
4.25 -0.797757
4.26 -0.762716
4.27 -0.730657
4.28 -0.702767
4.29 -0.68051
4.3 -0.66479
4.31 -0.655542
4.32 -0.65349
4.33 -0.657809
4.34 -0.667666
4.35 -0.682715
4.36 -0.701063
4.37 -0.72154
4.38 -0.742581
4.39 -0.762638
4.4 -0.780144
4.41 -0.793562
4.42 -0.802029
4.43 -0.803927
4.44 -0.798914
4.45 -0.78683
4.46 -0.766541
4.47 -0.73929
4.48 -0.7053
4.49 -0.66505
4.5 -0.62018
4.51 -0.571627
4.52 -0.520982
4.53 -0.469796
4.54 -0.419693
4.55 -0.372209
4.56 -0.328533
4.57 -0.290656
4.58 -0.258929
4.59 -0.234333
4.6 -0.217903
4.61 -0.209077
4.62 -0.208341
4.63 -0.21521
4.64 -0.228584
4.65 -0.248201
4.66 -0.272426
4.67 -0.300007
4.68 -0.329807
4.69 -0.360143
4.7 -0.389761
4.71 -0.41717
4.72 -0.441482
4.73 -0.461514
4.74 -0.476542
4.75 -0.486481
4.76 -0.490591
4.77 -0.489472
4.78 -0.483627
4.79 -0.473255
4.8 -0.459851
4.81 -0.444338
4.82 -0.428039
4.83 -0.412332
4.84 -0.398661
4.85 -0.38847
4.86 -0.382691
4.87 -0.383028
4.88 -0.389928
4.89 -0.403832
4.9 -0.426033
4.91 -0.455593
4.92 -0.4926
4.93 -0.536823
4.94 -0.586811
4.95 -0.641939
4.96 -0.700719
4.97 -0.761623
4.98 -0.823221
4.99 -0.883823
5 -0.942079
5.01 -0.996058
5.02 -1.04499
5.03 -1.08767
5.04 -1.12287
5.05 -1.15078
5.06 -1.17059
5.07 -1.18259
5.08 -1.18762
5.09 -1.18563
5.1 -1.17822
5.11 -1.16651
5.12 -1.15151
5.13 -1.13502
5.14 -1.11828
5.15 -1.10283
5.16 -1.08972
5.17 -1.08021
5.18 -1.07505
5.19 -1.07443
5.2 -1.07901
5.21 -1.08808
5.22 -1.101
5.23 -1.11704
5.24 -1.13447
5.25 -1.15173
5.26 -1.16662
5.27 -1.17727
5.28 -1.18097
5.29 -1.17538
5.3 -1.15894
5.31 -1.12795
5.32 -1.08174
5.33 -1.01899
5.34 -0.936477
5.35 -0.835736
5.36 -0.715613
5.37 -0.575735
5.38 -0.418602
5.39 -0.244168
5.4 -0.0550945
5.41 0.145616
5.42 0.356182
5.43 0.572273
5.44 0.790688
5.45 1.00739
5.46 1.21878
5.47 1.42097
5.48 1.60955
5.49 1.78241
5.5 1.93494
5.51 2.06492
5.52 2.17152
5.53 2.24994
5.54 2.30179
5.55 2.32662
5.56 2.32177
5.57 2.29126
5.58 2.23488
5.59 2.15382
5.6 2.05215
5.61 1.93067
5.62 1.79316
5.63 1.64315
5.64 1.48254
5.65 1.31563
5.66 1.14512
5.67 0.973943
5.68 0.804774
5.69 0.639964
5.7 0.481856
5.71 0.331439
5.72 0.190712
5.73 0.0601904
5.74 -0.0602
5.75 -0.169022
5.76 -0.267686
5.77 -0.356542
5.78 -0.43545
5.79 -0.506336
5.8 -0.56966
5.81 -0.62637
5.82 -0.67793
5.83 -0.724846
5.84 -0.768239
5.85 -0.808929
5.86 -0.847224
5.87 -0.883808
5.88 -0.918897
5.89 -0.95248
5.9 -0.98469
5.91 -1.01531
5.92 -1.04407
5.93 -1.07087
5.94 -1.09524
5.95 -1.11703
5.96 -1.1362
5.97 -1.1523
5.98 -1.16568
5.99 -1.17644
6 -1.18467
6.01 -1.19104
6.02 -1.19594
6.03 -1.20003
6.04 -1.20401
6.05 -1.20859
6.06 -1.21449
6.07 -1.22218
6.08 -1.23248
6.09 -1.24544
6.1 -1.26121
6.11 -1.2799
6.12 -1.30082
6.13 -1.32341
6.14 -1.3466
6.15 -1.36913
6.16 -1.38924
6.17 -1.40508
6.18 -1.415
6.19 -1.41564
6.2 -1.4057
6.21 -1.38281
6.22 -1.3433
6.23 -1.2868
6.24 -1.2103
6.25 -1.11181
6.26 -0.991755
6.27 -0.847082
6.28 -0.678855
6.29 -0.488215
6.3 -0.272981
6.31 -0.0374731
6.32 0.217063
6.33 0.489269
6.34 0.774441
6.35 1.07008
6.36 1.37208
6.37 1.67618
6.38 1.97807
6.39 2.27328
6.4 2.55823
6.41 2.82667
6.42 3.07661
6.43 3.30422
6.44 3.50427
6.45 3.67697
6.46 3.81836
6.47 3.92677
6.48 4.00374
6.49 4.04581
6.5 4.0557
6.51 4.0356
6.52 3.98324
6.53 3.90488
6.54 3.80211
6.55 3.67666
6.56 3.53394
6.57 3.37614
6.58 3.20714
6.59 3.0309
6.6 2.85026
6.61 2.66882
6.62 2.48913
6.63 2.31431
6.64 2.14585
6.65 1.98548
6.66 1.83508
6.67 1.69435
6.68 1.56429
6.69 1.44467
6.7 1.33431
6.71 1.23331
6.72 1.13984
6.73 1.05248
6.74 0.970418
6.75 0.891482
6.76 0.814436
6.77 0.737829
6.78 0.660428
6.79 0.581137
6.8 0.499098
6.81 0.41401
6.82 0.325278
6.83 0.23324
6.84 0.138299
6.85 0.0407917
6.86 -0.0580854
6.87 -0.157391
6.88 -0.255759
6.89 -0.351987
6.9 -0.444518
6.91 -0.531876
6.92 -0.613172
6.93 -0.68641
6.94 -0.751097
6.95 -0.80669
6.96 -0.851311
6.97 -0.88595
6.98 -0.910135
6.99 -0.92353
7 -0.927606
7.01 -0.922391
7.02 -0.909086
7.03 -0.889275
7.04 -0.863679
7.05 -0.834287
7.06 -0.802537
7.07 -0.769916
7.08 -0.738044
7.09 -0.708286
7.1 -0.68222
7.11 -0.660597
7.12 -0.644721
7.13 -0.635272
7.14 -0.632297
7.15 -0.636795
7.16 -0.648122
7.17 -0.665921
7.18 -0.690411
7.19 -0.720097
7.2 -0.754399
7.21 -0.79241
7.22 -0.832745
7.23 -0.874421
7.24 -0.916137
7.25 -0.956854
7.26 -0.995277
7.27 -1.03059
7.28 -1.06211
7.29 -1.08861
7.3 -1.11022
7.31 -1.12643
7.32 -1.13693
7.33 -1.14233
7.34 -1.14253
7.35 -1.13821
7.36 -1.13019
7.37 -1.1189
7.38 -1.10554
7.39 -1.09096
7.4 -1.07613
7.41 -1.06202
7.42 -1.04952
7.43 -1.03962
7.44 -1.03274
7.45 -1.02973
7.46 -1.03091
7.47 -1.03623
7.48 -1.04622
7.49 -1.06027
7.5 -1.078
7.51 -1.09917
7.52 -1.12265
7.53 -1.14771
7.54 -1.17326
7.55 -1.1982
7.56 -1.22126
7.57 -1.2412
7.58 -1.25711
7.59 -1.2672
7.6 -1.27092
7.61 -1.26747
7.62 -1.25516
7.63 -1.23442
7.64 -1.20443
7.65 -1.16469
7.66 -1.11607
7.67 -1.05812
7.68 -0.991746
7.69 -0.918092
7.7 -0.837367
7.71 -0.751504
7.72 -0.661734
7.73 -0.569387
7.74 -0.476352
7.75 -0.384197
7.76 -0.294856
7.77 -0.209697
7.78 -0.130789
7.79 -0.0595613
7.8 0.00310513
7.81 0.054741
7.82 0.095379
7.83 0.124245
7.84 0.139518
7.85 0.142389
7.86 0.132118
7.87 0.108582
7.88 0.0732863
7.89 0.0258806
7.9 -0.0321531
7.91 -0.0992895
7.92 -0.175251
7.93 -0.257664
7.94 -0.345209
7.95 -0.436581
7.96 -0.5298
7.97 -0.623463
7.98 -0.715901
7.99 -0.805875
8 -0.891796
8.01 -0.972599
8.02 -1.04764
8.03 -1.11524
8.04 -1.17557
8.05 -1.22814
8.06 -1.27197
8.07 -1.30794
8.08 -1.33566
8.09 -1.35524
8.1 -1.36765
8.11 -1.37265
8.12 -1.37116
8.13 -1.36395
8.14 -1.3509
8.15 -1.3332
8.16 -1.31121
8.17 -1.28504
8.18 -1.25545
8.19 -1.22245
8.2 -1.18612
8.21 -1.14673
8.22 -1.10387
8.23 -1.0575
8.24 -1.00754
8.25 -0.95309
8.26 -0.894247
8.27 -0.830543
8.28 -0.761083
8.29 -0.686077
8.3 -0.604837
8.31 -0.516978
8.32 -0.422831
8.33 -0.32171
8.34 -0.214059
8.35 -0.100342
8.36 0.019861
8.37 0.145297
8.38 0.275507
8.39 0.410026
8.4 0.547575
8.41 0.687438
8.42 0.828544
8.43 0.969852
8.44 1.1103
8.45 1.24889
8.46 1.38486
8.47 1.51688
8.48 1.64467
8.49 1.76756
8.5 1.88463
8.51 1.99617
8.52 2.10163
8.53 2.20096
8.54 2.29468
8.55 2.38246
8.56 2.46501
8.57 2.54288
8.58 2.61593
8.59 2.68519
8.6 2.75092
8.61 2.8133
8.62 2.87289
8.63 2.92967
8.64 2.98362
8.65 3.03477
8.66 3.08248
8.67 3.12639
8.68 3.166
8.69 3.1997
8.7 3.22716
8.71 3.24709
8.72 3.25754
8.73 3.25815
8.74 3.2469
8.75 3.22235
8.76 3.18426
8.77 3.12999
8.78 3.05962
8.79 2.97308
8.8 2.86754
8.81 2.74522
8.82 2.60565
8.83 2.44822
8.84 2.27545
8.85 2.08737
8.86 1.88562
8.87 1.67273
8.88 1.44966
8.89 1.21948
8.9 0.984534
8.91 0.747084
8.92 0.510044
8.93 0.275794
8.94 0.0473334
8.95 -0.173609
8.96 -0.3843
8.97 -0.582682
8.98 -0.76803
8.99 -0.93746
9 -1.09108
9.01 -1.22877
9.02 -1.34812
9.03 -1.4515
9.04 -1.53871
9.05 -1.60967
9.06 -1.66696
9.07 -1.71085
9.08 -1.74311
9.09 -1.76599
9.1 -1.78028
9.11 -1.78845
9.12 -1.79213
9.13 -1.79256
9.14 -1.79155
9.15 -1.79019
9.16 -1.78954
9.17 -1.79023
9.18 -1.79277
9.19 -1.79728
9.2 -1.80349
9.21 -1.81111
9.22 -1.81928
9.23 -1.82716
9.24 -1.83344
9.25 -1.83703
9.26 -1.83657
9.27 -1.83027
9.28 -1.81735
9.29 -1.79596
9.3 -1.76496
9.31 -1.724
9.32 -1.67104
9.33 -1.60645
9.34 -1.53017
9.35 -1.44075
9.36 -1.34003
9.37 -1.22804
9.38 -1.10517
9.39 -0.973456
9.4 -0.833526
9.41 -0.687212
9.42 -0.536428
9.43 -0.382628
9.44 -0.228026
9.45 -0.0743222
9.46 0.0762225
9.47 0.222181
9.48 0.361751
9.49 0.492904
9.5 0.615072
9.51 0.726308
9.52 0.825814
9.53 0.913576
9.54 0.987611
9.55 1.04879
9.56 1.09715
9.57 1.13132
9.58 1.15318
9.59 1.16251
9.6 1.15932
9.61 1.14527
9.62 1.12009
9.63 1.0848
9.64 1.04059
9.65 0.987129
9.66 0.925943
9.67 0.857645
9.68 0.782128
9.69 0.700772
9.7 0.613786
9.71 0.521528
9.72 0.424932
9.73 0.324163
9.74 0.21995
9.75 0.113038
9.76 0.00386009
9.77 -0.106555
9.78 -0.217403
9.79 -0.327572
9.8 -0.436007
9.81 -0.54142
9.82 -0.642161
9.83 -0.737208
9.84 -0.824437
9.85 -0.902332
9.86 -0.96987
9.87 -1.02391
9.88 -1.06407
9.89 -1.08899
9.9 -1.09551
9.91 -1.08449
9.92 -1.05407
9.93 -1.00287
9.94 -0.932237
9.95 -0.840375
9.96 -0.728403
9.97 -0.597971
9.98 -0.447969
9.99 -0.281873
10 -0.101298
10.01 0.0926971
10.02 0.296151
10.03 0.506935
10.04 0.721925
10.05 0.937814
10.06 1.15133
10.07 1.35905
10.08 1.55836
10.09 1.74471
10.1 1.91641
10.11 2.07097
10.12 2.20403
10.13 2.31598
10.14 2.40408
10.15 2.46647
10.16 2.50454
10.17 2.51577
10.18 2.50158
10.19 2.46379
10.2 2.4006
10.21 2.31628
10.22 2.21228
10.23 2.08928
10.24 1.95168
10.25 1.80111
10.26 1.64028
10.27 1.47254
10.28 1.30004
10.29 1.12579
10.3 0.952062
10.31 0.781471
10.32 0.615721
10.33 0.456421
10.34 0.305741
10.35 0.163806
10.36 0.0318558
10.37 -0.0894866
10.38 -0.200952
10.39 -0.301795
10.4 -0.393041
10.41 -0.47573
10.42 -0.549715
10.43 -0.617003
10.44 -0.678475
10.45 -0.734931
10.46 -0.788
10.47 -0.838521
10.48 -0.887552
10.49 -0.936007
10.5 -0.984585
10.51 -1.03385
10.52 -1.0841
10.53 -1.13565
10.54 -1.18834
10.55 -1.24201
10.56 -1.29634
10.57 -1.35078
10.58 -1.40475
10.59 -1.4575
10.6 -1.50845
10.61 -1.55662
10.62 -1.60141
10.63 -1.64235
10.64 -1.67825
10.65 -1.70919
10.66 -1.73471
10.67 -1.75411
10.68 -1.76793
10.69 -1.77582
10.7 -1.77794
10.71 -1.77497
10.72 -1.76684
10.73 -1.75439
10.74 -1.73827
10.75 -1.71869
10.76 -1.69671
10.77 -1.67282
10.78 -1.64755
10.79 -1.62154
10.8 -1.59519
10.81 -1.56889
10.82 -1.54288
10.83 -1.51735
10.84 -1.4923
10.85 -1.46768
10.86 -1.44336
10.87 -1.41906
10.88 -1.39452
10.89 -1.36936
10.9 -1.34332
10.91 -1.31599
10.92 -1.28708
10.93 -1.25649
10.94 -1.22387
10.95 -1.18934
10.96 -1.15301
10.97 -1.11489
10.98 -1.07554
10.99 -1.03534
11 -0.994893
11.01 -0.954891
11.02 -0.916134
11.03 -0.879534
11.04 -0.84575
11.05 -0.816019
11.06 -0.790951
11.07 -0.771081
11.08 -0.757908
11.09 -0.751143
11.1 -0.751375
11.11 -0.759277
11.12 -0.774104
11.13 -0.796151
11.14 -0.824888
11.15 -0.859267
11.16 -0.898965
11.17 -0.942463
11.18 -0.988542
11.19 -1.03592
11.2 -1.0829
11.21 -1.12799
11.22 -1.16919
11.23 -1.2053
11.24 -1.2343
11.25 -1.25459
11.26 -1.26541
11.27 -1.26433
11.28 -1.25109
11.29 -1.22521
11.3 -1.18426
11.31 -1.12966
11.32 -1.06065
11.33 -0.976479
11.34 -0.878802
11.35 -0.767056
11.36 -0.642145
11.37 -0.505648
11.38 -0.357303
11.39 -0.199158
11.4 -0.0324566
11.41 0.142499
11.42 0.323485
11.43 0.509627
11.44 0.699859
11.45 0.892712
11.46 1.0873
11.47 1.28248
11.48 1.47736
11.49 1.67094
11.5 1.86245
11.51 2.05125
11.52 2.23616
11.53 2.41691
11.54 2.59266
11.55 2.76232
11.56 2.9257
11.57 3.08149
11.58 3.22886
11.59 3.36746
11.6 3.49517
11.61 3.61176
11.62 3.71642
11.63 3.80638
11.64 3.88219
11.65 3.94211
11.66 3.98414
11.67 4.00884
11.68 4.01381
11.69 3.99862
11.7 3.96384
11.71 3.90666
11.72 3.82882
11.73 3.73062
11.74 3.6101
11.75 3.4705
11.76 3.3118
11.77 3.13455
11.78 2.94181
11.79 2.73408
11.8 2.51391
11.81 2.28398
11.82 2.04572
11.83 1.80241
11.84 1.55634
11.85 1.31007
11.86 1.06604
11.87 0.826586
11.88 0.594313
11.89 0.370478
11.9 0.157588
11.91 -0.0430975
11.92 -0.231181
11.93 -0.404166
11.94 -0.562891
11.95 -0.707208
11.96 -0.835619
11.97 -0.950258
11.98 -1.05094
11.99 -1.13803
12 -1.21354
12.01 -1.27748
12.02 -1.33142
12.03 -1.37685
12.04 -1.4139
12.05 -1.44437
12.06 -1.46905
12.07 -1.48813
12.08 -1.50276
12.09 -1.51301
12.1 -1.5189
12.11 -1.52073
12.12 -1.5179
12.13 -1.51014
12.14 -1.49722
12.15 -1.4778
12.16 -1.45182
12.17 -1.41865
12.18 -1.3768
12.19 -1.32669
12.2 -1.26745
12.21 -1.19852
12.22 -1.12063
12.23 -1.03316
12.24 -0.93695
12.25 -0.833067
12.26 -0.721631
12.27 -0.6047
12.28 -0.483586
12.29 -0.359834
12.3 -0.2356
12.31 -0.112799
12.32 0.00618296
12.33 0.119635
12.34 0.224845
12.35 0.319984
12.36 0.403846
12.37 0.473085
12.38 0.527774
12.39 0.566766
12.4 0.5877
12.41 0.592119
12.42 0.57902
12.43 0.548417
12.44 0.50237
12.45 0.44057
12.46 0.36529
12.47 0.27873
12.48 0.181705
12.49 0.0776554
12.5 -0.0313321
12.51 -0.142842
12.52 -0.254112
12.53 -0.362691
12.54 -0.465831
12.55 -0.56181
12.56 -0.647734
12.57 -0.722112
12.58 -0.784048
12.59 -0.830448
12.6 -0.862081
12.61 -0.878164
12.62 -0.877076
12.63 -0.860709
12.64 -0.828507
12.65 -0.781016
12.66 -0.720292
